#
# This file was created by WAXSiS on Tue Apr 17 07:12:33 CEST 2018
#
# Grace format, to be read by the tool xmgrace.
#
# This file contains the contributions to SWAXS curve, such as scattering from the solute+hydration layer, exclued solvent, etc.
# To understand these contributions, please read the article, Chen and Hub, Biophys. J. (2014), 107:435-447
#
# This file was created Tue Apr 17 07:11:53 2018
# by the following command:
# mdrun -nice 19 -nt 6 -s waxsmd.tpr -rerun start.xtc -sw water.tpr -fw /home/waxs/waxsserver/watersystems/tip3p/cubic/L12/100frames.xtc -v 
#
# mdrun is part of G R O M A C S:
#
# Giant Rising Ordinary Mutants for A Clerical Setup
#
@    title "Contributions to WAXS pattern"
@    xaxis  label "q [nm\S-1\N]"
@    yaxis  label "Intensity [e\S2\N]"
@TYPE xy
@    s0 legend  "<|A(q)|\S2\N>"
@    s1 legend  "<|B(q)|\S2\N>"
@    s2 legend  "2Re[ -<B\S*\N(q)> <A(q) - B(q)> ]"
@    s3 legend  "Re <A(|q|)>"
@    s4 legend  "Im <A(|q|)>"
@    s5 legend  "Re <B(|q|)>"
@    s6 legend  "Im <B(|q|)>"
@    s7 legend  "|<A-B>|\S2"
@    s8 legend  "var(A)"
@    s9 legend  "var(B)"
@    s0 errorbar size 0.250000
@    s1 errorbar size 0.250000
@    s2 errorbar size 0.250000
@    s3 errorbar size 0.250000
@    s4 errorbar size 0.250000
@    s5 errorbar size 0.250000
@    s6 errorbar size 0.250000
@    s7 errorbar size 0.250000
@    s8 errorbar size 0.250000
@    s9 errorbar size 0.250000
@type xydy
           0   8.20691e+09   5.62357e+06
         0.3   5.97808e+09   4.04518e+06
         0.6    2.1935e+09   1.75281e+06
         0.9   3.62665e+08        611868
         1.2   8.06302e+07        281202
         1.5   5.02403e+07        227396
         1.8   2.06427e+07        147216
         2.1   1.10165e+07        106948
         2.4    5.9169e+06       78903.8
         2.7   3.44478e+06       61094.3
           3   2.27402e+06       48977.8
         3.3   1.52207e+06       39956.2
         3.6   1.00353e+06       32695.9
         3.9        714711         27249
         4.2        494821       22879.2
         4.5        434353       21614.4
         4.8        402206       20699.5
         5.1        379384       19873.4
         5.4        408557       21143.6
         5.7        431259       21808.8
           6        418401         21459
         6.3        391117       20769.1
         6.6        390855       21004.4
         6.9        378610       20833.5
         7.2        337893       19712.6
         7.5        285972       17995.6
         7.8        246226       16587.1
         8.1        224688         16002
         8.4        211485       15655.4
         8.7        198491         15132
           9        184615       14647.6
         9.3        176660       14417.7
         9.6        173653       14411.1
         9.9        176897       14690.1
        10.2        186800       15366.6
        10.5        187996         15647
        10.8        183420       15593.7
        11.1        186106       15882.2
        11.4        197313       16690.1
        11.7        213628       17849.9
          12        232048       19031.5
        12.3        251331       20282.5
        12.6        267625       21429.9
        12.9        281056       22551.9
        13.2        293200       23449.8
        13.5        305583       24456.3
        13.8        317766       25540.9
        14.1        328651       26505.3
        14.4        338013       27492.7
        14.7        347201       28405.3
          15        357603       29479.8
        15.3        368552         30617
        15.6        378384       31660.5
        15.9        382111       32432.4
        16.2        382184       33024.3
        16.5        386373       33797.8
        16.8        392926       34680.6
        17.1        399820       35590.5
        17.4        407261       36514.9
        17.7        410975       37237.9
          18        411699       37677.6
        18.3        413157       38176.7
        18.6        417211       38753.9
        18.9        423087       39556.2
        19.2        425629       40095.5
        19.5        425760       40262.2
        19.8        426192       40634.1
        20.1        423735       40583.4
        20.4        420316       40421.3
        20.7        419985       40540.3
          21        420339       40645.6
        21.3        419230       40572.7
        21.6        417323       40564.9
        21.9        414460       40270.8
        22.2        410990       39986.6
        22.5        407080       39704.3
        22.8        404210       39390.9
        23.1        400906       39157.3
        23.4        397301       38830.4
        23.7        395469       38561.5
          24        393750       38392.4
        24.3        389717       38070.3
        24.6        384811       37591.5
        24.9        379846       37118.9
        25.2        374599       36583.6
        25.5        369955       36125.1
        25.8        365727       35767.7
        26.1        360391       35162.7
        26.4        353519       34556.4
        26.7        346881       33981.9
          27        340843       33366.2
        27.3        335272       32756.2
        27.6        330109       32250.9
        27.9        323780       31672.6
        28.2        314887       30816.6
        28.5        305050       29872.3
        28.8        296304       29015.4
        29.1        288425       28214.1
        29.4        280291       27428.4
        29.7        271581       26599.2
          30        262701       25717.2
&
@type xydy
           0   6.77194e+09   4.59661e+06
         0.3   4.88943e+09   3.35686e+06
         0.6   1.73588e+09   1.59429e+06
         0.9   2.65969e+08        597276
         1.2   6.35509e+07        305094
         1.5   3.98511e+07        241221
         1.8   1.55452e+07        152295
         2.1   8.84775e+06        115678
         2.4   5.06641e+06       86381.1
         2.7   3.10031e+06       68731.4
           3   2.20805e+06       57953.8
         3.3   1.62058e+06       49331.9
         3.6   1.09044e+06         40734
         3.9        785899       34245.9
         4.2        582253       29121.9
         4.5        518623       27539.8
         4.8        414185       24388.5
         5.1        309180       20644.1
         5.4        281862       19590.1
         5.7        243416       18098.6
           6        207070       16465.4
         6.3        187818       15665.2
         6.6        174445       14826.5
         6.9        154783       13763.3
         7.2        145195       13286.9
         7.5        138771       12961.8
         7.8        132445       12568.2
         8.1        129301       12376.2
         8.4        124297       12099.4
         8.7        122008       11972.2
           9        121703       11991.6
         9.3        119451       11779.7
         9.6        119923       11862.1
         9.9        121476       12081.3
        10.2        122928       12261.8
        10.5        124387       12459.6
        10.8        127423       12758.9
        11.1        130872       13147.4
        11.4        134634       13555.2
        11.7        139635       13995.4
          12        144380       14457.3
        12.3        148535       14934.3
        12.6        154240       15489.4
        12.9        161408       16230.8
        13.2        168036       16901.2
        13.5        175543       17723.5
        13.8        184275       18612.4
        14.1        193619       19462.9
        14.4        203679       20429.9
        14.7        214313       21508.5
          15        226180       22799.5
        15.3        238817       24036.5
        15.6        252232       25410.5
        15.9        265540       26668.9
        16.2        279114         28114
        16.5        294491       29611.3
        16.8        310893       31243.1
        17.1        327009         32827
        17.4        342864       34435.2
        17.7        358941       36066.2
          18        375179       37637.1
        18.3        390911       39289.7
        18.6        405218       40742.7
        18.9        418980         42159
        19.2        432118       43441.2
        19.5        443490       44587.3
        19.8        453086       45525.3
        20.1        460989       46375.6
        20.4        466740       46966.4
        20.7        470980         47318
          21        474959       47746.2
        21.3        478219       48068.6
        21.6        478819       48173.1
        21.9        477462       48009.7
        22.2        475232       47823.3
        22.5        472582       47551.2
        22.8        469784       47233.1
        23.1        466406       46870.6
        23.4        461526         46373
        23.7        455660       45813.5
          24        450141       45272.9
        24.3        445119       44662.2
        24.6        439956       44115.4
        24.9        434661       43661.4
        25.2        429609       43148.6
        25.5        425006       42710.7
        25.8        419766       42245.8
        26.1        413820       41650.7
        26.4        407257         40983
        26.7        399430       40120.4
          27        391413       39260.8
        27.3        384065       38643.5
        27.6        376710         37891
        27.9        368712       37071.5
        28.2        359862         36203
        28.5        349733       35177.1
        28.8        339414       34106.1
        29.1        329122       33056.9
        29.4        318291       31986.6
        29.7        307339       30847.9
          30        296428         29800
&
@type xydy
           0  -1.36605e+09   6.56885e+06
         0.3  -1.03394e+09   4.72924e+06
         0.6  -4.30755e+08    2.0839e+06
         0.9  -8.87699e+07        724600
         1.2  -1.52067e+07        372777
         1.5   -9.4361e+06        295970
         1.8  -4.44605e+06        184334
         2.1  -1.74915e+06        142419
         2.4       -583652        110474
         2.7       -143229       89818.1
           3        139902       78499.5
         3.3        300767       69551.9
         3.6        266210       58501.3
         3.9        243582       50881.7
         4.2        274090       46007.2
         4.5        282248         44425
         4.8        202313       39657.1
         5.1        112049       33544.5
         5.4       66667.6       31633.3
         5.7       19378.3       29312.5
           6      -11653.5       26410.6
         6.3      -20173.9       24642.3
         6.6      -39240.4       23091.5
         6.9      -49477.4       21453.7
         7.2      -32179.7       21011.2
         7.5      -5228.42       21079.3
         7.8       11169.5       20689.5
         8.1       9836.24       19460.9
         8.4      -2101.62       17445.1
         8.7      -4576.73         16358
           9       1929.23       16294.8
         9.3       1475.39       15622.2
         9.6      -489.771       15124.2
         9.9      -2368.96       15080.1
        10.2      -5856.13       15269.6
        10.5      -2508.85       15823.6
        10.8       2671.77       16278.1
        11.1       2493.25         16467
        11.4       1735.53       17206.8
        11.7       3359.05       18731.2
          12       5522.89       20467.8
        12.3        7314.2       22074.1
        12.6       10378.4       23677.6
        12.9       11765.3       24944.9
        13.2       10455.5       25840.7
        13.5       8933.56       26686.6
        13.8       7055.31       27590.8
        14.1       5459.49         28415
        14.4       4586.24       29201.6
        14.7       3296.55       29898.8
          15       2787.11       30895.4
        15.3       3005.17       32116.2
        15.6       2490.84       33041.4
        15.9       2895.01       33591.2
        16.2       3540.03       33828.2
        16.5       2999.71       34360.9
        16.8       3720.85       35231.2
        17.1       4725.91       36017.4
        17.4       5342.92       36740.9
        17.7       6683.48       37243.7
          18        6971.9       37233.5
        18.3       6520.48       37040.8
        18.6       6742.48         37246
        18.9       6734.69       37603.6
        19.2       8171.24         37892
        19.5       9717.94       37950.1
        19.8          9414       37444.6
        20.1       9661.62       36893.4
        20.4       10200.7       36190.6
        20.7       10148.6       35700.8
          21       10564.3       35597.1
        21.3       10906.3       35408.2
        21.6         10515       34910.5
        21.9       10376.7         34319
        22.2       10858.2       33854.7
        22.5       11251.8       33444.4
        22.8       10727.2       32896.3
        23.1       9665.84       32201.3
        23.4       9089.37       31705.3
        23.7       8841.88       31483.8
          24       8670.62       31341.8
        24.3       9093.45       31089.7
        24.6        9005.9       30590.9
        24.9       8342.09       29962.8
        25.2       8019.62       29439.2
        25.5       8172.12         29163
        25.8       8437.41       29018.3
        26.1       8415.28         28641
        26.4       8257.62       28021.6
        26.7       7969.13       27273.2
          27       7551.76       26629.9
        27.3       7322.45       26276.5
        27.6       7377.47       26082.9
        27.9       7727.47       25718.8
        28.2       7694.36       24932.4
        28.5       7213.68       23949.8
        28.8       6655.61       23126.3
        29.1       6198.34       22393.6
        29.4       6160.64       21700.1
        29.7       6122.24       20990.2
          30       5842.85       20234.9
&
@type xy
           0       90591.5
         0.3       77276.3
         0.6       46251.2
         0.9       16100.6
         1.2      -476.704
         1.5      -3787.99
         1.8      -1523.85
         2.1       288.232
         2.4       448.121
         2.7       88.2774
           3      -46.2539
         3.3       13.4471
         3.6       84.0052
         3.9       84.1891
         4.2       14.2285
         4.5      -45.1261
         4.8      -18.6444
         5.1       46.3485
         5.4       52.5178
         5.7       1.56848
           6      -28.2353
         6.3      -13.3648
         6.6       1.93579
         6.9       -4.6312
         7.2      -12.3718
         7.5      -7.16853
         7.8       2.70553
         8.1       11.4604
         8.4       19.3547
         8.7       23.0365
           9       21.9756
         9.3       22.3518
         9.6       23.6486
         9.9       16.4558
        10.2       1.03072
        10.5      -8.43827
        10.8      -4.50763
        11.1       2.80829
        11.4       1.46719
        11.7      -7.53863
          12      -15.0371
        12.3        -15.28
        12.6      -10.1605
        12.9      -5.28406
        13.2      -3.95639
        13.5      -3.51438
        13.8        1.4686
        14.1       11.5174
        14.4       21.2803
        14.7       26.5223
          15       27.2599
        15.3       23.9099
        15.6       16.0346
        15.9       6.43312
        16.2       1.29696
        16.5       3.36871
        16.8       8.97117
        17.1       13.8388
        17.4         18.44
        17.7       24.4748
          18        28.852
        18.3       25.5754
        18.6       13.3703
        18.9      -1.37354
        19.2      -10.2925
        19.5      -10.2247
        19.8      -4.60104
        20.1      0.417075
        20.4      0.528264
        20.7      -4.11626
          21      -9.13775
        21.3      -9.50412
        21.6      -4.10517
        21.9       3.58722
        22.2        9.4176
        22.5       12.3591
        22.8       13.4669
        23.1       12.6552
        23.4       8.74059
        23.7        2.1305
          24      -4.13703
        24.3      -6.63641
        24.6      -4.60393
        24.9     -0.566234
        25.2       1.90254
        25.5           1.2
        25.8      -1.16558
        26.1      -2.49914
        26.4      -1.74749
        26.7    -0.0407673
          27       1.15028
        27.3       1.63406
        27.6       2.03743
        27.9       2.48822
        28.2       2.37705
        28.5       1.18873
        28.8     -0.803618
        29.1       -2.7158
        29.4      -3.75257
        29.7      -3.62233
          30      -2.41885
&
@type xy
           0             0
         0.3     0.0347102
         0.6     0.0820435
         0.9      0.150432
         1.2       0.22532
         1.5      0.257234
         1.8      0.189936
         2.1     0.0201306
         2.4     -0.173281
         2.7     -0.274508
           3     -0.221752
         3.3    -0.0560294
         3.6      0.118646
         3.9      0.219311
         4.2      0.227247
         4.5      0.161792
         4.8     0.0873896
         5.1     0.0908109
         5.4      0.102676
         5.7       0.10275
           6     -0.122876
         6.3    -0.0241135
         6.6      0.165985
         6.9    -0.0374728
         7.2    -0.0355891
         7.5   -0.00298631
         7.8   -0.00956244
         8.1     0.0280563
         8.4    -0.0122295
         8.7    -0.0126927
           9   -0.00273693
         9.3    -0.0078684
         9.6    -0.0107647
         9.9   -0.00228539
        10.2   -0.00129857
        10.5  -0.000211125
        10.8    0.00327936
        11.1   -0.00440275
        11.4     0.0168992
        11.7    -0.0078102
          12    -0.0129454
        12.3     0.0120784
        12.6    -0.0115394
        12.9    -0.0205252
        13.2    0.00102988
        13.5   -0.00208008
        13.8   -0.00578235
        14.1    0.00327068
        14.4    0.00242518
        14.7   -0.00269445
          15    0.00356463
        15.3   -0.00575751
        15.6   -0.00390525
        15.9  -0.000328558
        16.2     -0.011366
        16.5    0.00874393
        16.8     0.0029052
        17.1   -0.00914083
        17.4     0.0113901
        17.7     0.0044718
          18  -0.000578322
        18.3    0.00779256
        18.6    0.00260502
        18.9   0.000699781
        19.2   0.000633571
        19.5     0.0041043
        19.8   0.000977869
        20.1   -0.00149798
        20.4    0.00134361
        20.7  -0.000346277
          21    0.00190174
        21.3   -0.00262304
        21.6   0.000290479
        21.9    0.00272016
        22.2   -0.00279129
        22.5    0.00241378
        22.8  -4.12422e-05
        23.1   -0.00178537
        23.4    0.00663968
        23.7   0.000710973
          24   -0.00050495
        24.3    0.00361255
        24.6    0.00211009
        24.9    0.00224486
        25.2   -0.00147871
        25.5   -0.00033492
        25.8    0.00240862
        26.1  -0.000239932
        26.4   -0.00176002
        26.7    0.00177173
          27    0.00154808
        27.3  -0.000372328
        27.6    0.00164898
        27.9    0.00175377
        28.2   0.000447562
        28.5   0.000456554
        28.8    0.00161507
        29.1   -0.00140091
        29.4   -0.00083303
        29.7   0.000967506
          30   -0.00120176
&
@type xy
           0       82291.3
         0.3       69883.5
         0.6         41110
         0.9       13482.8
         1.2      -1248.94
         1.5      -3708.19
         1.8      -1306.76
         2.1       386.101
         2.4       450.623
         2.7       64.2685
           3      -75.7292
         3.3      -22.5703
         3.6       49.6346
         3.9       61.1011
         4.2      -1.65566
         4.5      -65.1274
         4.8      -44.9131
         5.1       23.8455
         5.4       43.9032
         5.7       5.50406
           6      -20.5636
         6.3      -7.27849
         6.6       8.87898
         6.9       6.53445
         7.2     -0.814641
         7.5      -3.42627
         7.8      -4.38212
         8.1      -1.66236
         8.4       5.64894
         8.7       7.59192
           9      0.193002
         9.3      -4.58434
         9.6      0.488592
         9.9       5.32654
        10.2      0.832764
        10.5      -6.29408
        10.8      -6.05336
        11.1   -0.00537388
        11.4       4.05691
        11.7       3.25224
          12       0.20714
        12.3      -1.92333
        12.6      -2.10273
        12.9      -1.44272
        13.2      -1.48184
        13.5      -1.60947
        13.8     -0.043538
        14.1       2.47639
        14.4       3.04791
        14.7       1.17304
          15     -0.529737
        15.3     -0.661669
        15.6     -0.631177
        15.9      -1.39443
        16.2      -1.81909
        16.5      -1.25464
        16.8     -0.876277
        17.1      -1.65809
        17.4      -2.85194
        17.7      -3.21503
          18      -2.51175
        18.3      -1.26185
        18.6     0.0132702
        18.9      0.830928
        19.2      0.814519
        19.5       0.13381
        19.8      -0.50367
        20.1     -0.634887
        20.4     -0.560309
        20.7      -0.72771
          21     -0.954149
        21.3     -0.737926
        21.6     -0.135173
        21.9       0.24788
        22.2     0.0992687
        22.5     -0.269852
        22.8     -0.410453
        23.1     -0.149002
        23.4      0.452023
        23.7        1.0564
          24        1.1251
        24.3       0.52777
        24.6     -0.110094
        24.9     -0.107687
        25.2      0.420152
        25.5      0.876437
        25.8       1.02215
        26.1      0.982193
        26.4       0.75181
        26.7      0.225409
          27     -0.409714
        27.3     -0.719618
        27.6     -0.493607
        27.9     0.0536575
        28.2      0.502625
        28.5      0.607985
        28.8      0.542705
        29.1      0.694256
        29.4       1.12677
        29.7       1.39382
          30       1.07985
&
@type xy
           0             0
         0.3     0.0404614
         0.6     0.0914895
         0.9      0.159227
         1.2      0.228839
         1.5      0.251837
         1.8      0.177986
         2.1     0.0103791
         2.4     -0.168528
         2.7     -0.244606
           3     -0.161344
         3.3     0.0339976
         3.6      0.232542
         3.9      0.348979
         4.2      0.365033
         4.5      0.302578
         4.8     0.0555057
         5.1     0.0267993
         5.4     0.0779666
         5.7     0.0565853
           6     -0.115153
         6.3    -0.0201073
         6.6      0.104843
         6.9    -0.0167084
         7.2   -0.00120906
         7.5    -0.0363846
         7.8  -0.000343314
         8.1     0.0345125
         8.4    0.00423098
         8.7  -0.000860524
           9    -0.0148576
         9.3     0.0155612
         9.6    0.00523421
         9.9   -0.00220996
        10.2    0.00349339
        10.5    0.00236186
        10.8    0.00469039
        11.1  -0.000735597
        11.4    0.00486687
        11.7   -0.00251601
          12    0.00252836
        12.3   0.000850698
        12.6  -2.01857e-05
        12.9   -0.00115781
        13.2     -0.005023
        13.5     0.0011558
        13.8  -0.000909118
        14.1    0.00150494
        14.4   0.000102809
        14.7    0.00328551
          15   0.000897911
        15.3   -0.00534673
        15.6  -0.000187333
        15.9    -0.0011719
        16.2   -0.00156033
        16.5    0.00184237
        16.8   0.000397129
        17.1   -0.00249263
        17.4  -0.000158705
        17.7   0.000620997
          18   0.000447545
        18.3    0.00296807
        18.6   -0.00143391
        18.9    0.00238209
        19.2    0.00231138
        19.5  -0.000925646
        19.8    0.00139247
        20.1  -4.00878e-05
        20.4   0.000886208
        20.7   0.000385068
          21  -0.000577764
        21.3    0.00101586
        21.6  -0.000386791
        21.9  -0.000973068
        22.2    0.00058524
        22.5   -0.00110535
        22.8   0.000364795
        23.1  -0.000284058
        23.4  -0.000468111
        23.7    0.00096661
          24   -0.00103634
        24.3  -0.000160862
        24.6  -0.000452397
        24.9   -0.00138109
        25.2   0.000342909
        25.5  -0.000133199
        25.8  -0.000328313
        26.1   0.000139118
        26.4   0.000372455
        26.7  -8.43313e-05
          27  -0.000600319
        27.3   0.000463021
        27.6   0.000552735
        27.9  -0.000502644
        28.2    0.00110795
        28.5    0.00122186
        28.8  -0.000150969
        29.1   0.000889463
        29.4   0.000549807
        29.7  -0.000417077
          30   0.000441417
&
@type xydy
           0   6.88918e+07        692868
         0.3   5.47064e+07        524981
         0.6   2.68815e+07        293663
         0.9   7.94824e+06        239372
         1.2    1.8929e+06        224124
         1.5        971452        151714
         1.8        670937        105396
         2.1        440632       83128.2
         2.4        286044       56077.5
         2.7        221794         50927
           3        228253       41349.4
         3.3        223383       31951.9
         3.6        200911       28725.7
         3.9        194782       24305.4
         4.2        208351       22392.4
         4.5        219452       23155.8
         4.8        211628       22961.5
         5.1        202099       22020.7
         5.4        212590         22314
         5.7        227136       22556.8
           6        220714       21899.7
         6.3        204127       21426.2
         6.6        197457       21973.8
         6.9        194571       22084.3
         7.2        181814       21386.2
         7.5        164075       20051.7
         7.8        147320       18644.2
         8.1        127737       17665.7
         8.4        107982       16797.5
         8.7       95229.1       15929.9
           9       88673.1         15325
         9.3       83512.9       15027.9
         9.6       78698.3         14842
         9.9       78796.1       15082.6
        10.2       84781.7       15761.2
        10.5       89314.3       16227.3
        10.8       88537.1       16396.7
        11.1       88925.5       16817.6
        11.4       97422.6       17833.6
        11.7        112549       19376.9
          12        130148       21147.5
        12.3        148026       22819.1
        12.6        163448       24280.5
        12.9        174157       25670.3
        13.2        181014       26903.8
        13.5        186397       28103.6
        13.8        191406       29221.1
        14.1        195192       30099.6
        14.4        197364       31029.4
        14.7        198728       32049.5
          15        201577       33109.8
        15.3        205025       33993.6
        15.6        205865       34683.5
        15.9        201370       35226.9
        16.2        193387       35597.8
        16.5        188348       36093.7
        16.8        186513       36771.3
        17.1        184171       37313.7
        17.4        182142       37954.1
        17.7        177425       38359.8
          18        168299       38459.3
        18.3        159877       38432.9
        18.6        155488       38483.9
        18.9        152761       38488.1
        19.2        148569       38318.3
        19.5        142403       38003.8
        19.8        135179       37624.7
        20.1        127411       36827.5
        20.4        120158       35835.4
        20.7        115319       35317.2
          21        112716       35169.1
        21.3        110052       34928.8
        21.6        106383       34448.4
        21.9        102964       33757.6
        22.2       99964.2       33278.8
        22.5         97400       32774.8
        22.8       95156.9       32145.2
        23.1       92244.1       31426.4
        23.4         90277       30955.5
        23.7         90518       30943.7
          24       91093.4       31085.4
        24.3       90604.7       30837.6
        24.6       88546.9       30276.2
        24.9         86073       29733.1
        25.2       84413.5       29412.2
        25.5       83750.4         29233
        25.8         83680       28924.7
        26.1       82437.6       28214.6
        26.4       79825.3         27436
        26.7         77268       26833.4
          27         75554       26378.8
        27.3       75159.7       26039.8
        27.6       75401.1       25913.4
        27.9       74657.8         25630
        28.2         71643       24839.6
        28.5       67787.2       23845.9
        28.8       65258.3       23044.5
        29.1       63486.2       22334.2
        29.4       61628.7       21624.4
        29.7       59626.6       20915.9
          30       57410.1       20198.8
&
@type xydy
           0       95257.9       13559.2
         0.3       81383.9       9825.75
         0.6       58781.4       6057.07
         0.9       49669.7       5057.07
         1.2         50231       5099.57
         1.5       52234.2       5326.42
         1.8         52234       5340.05
         2.1         51809          5289
         2.4       53017.2       5413.92
         2.7       53293.4       5437.09
           3       53430.1       5434.54
         3.3       54010.3       5498.26
         3.6       53742.2       5479.03
         3.9       54129.2       5518.69
         4.2       55029.2       5608.94
         4.5       55606.7       5664.72
         4.8         56034       5711.51
         5.1       57123.5       5826.12
         5.4       58264.4       5939.17
         5.7       58477.9       5956.77
           6       58383.8       5946.43
         6.3       59532.2       6059.74
         6.6       60885.3       6198.09
         6.9       61982.2       6311.42
         7.2       62751.2       6393.02
         7.5       63533.8       6468.35
         7.8       65056.8        6622.6
         8.1       66842.5       6806.18
         8.4       68306.6       6959.21
         8.7       69866.9       7119.21
           9       71667.2       7299.58
         9.3       73334.6       7468.83
         9.6       75377.4       7678.92
         9.9       77699.3       7918.29
        10.2       80019.9       8154.46
        10.5       82506.5       8404.26
        10.8       85272.7       8686.67
        11.1       88338.6       9001.53
        11.4       91499.7       9326.64
        11.7       95090.3       9691.47
          12         98903       10080.4
        12.3        102990       10497.7
        12.6        107238       10929.8
        12.9        111567       11373.1
        13.2        116369       11860.9
        13.5        122004       12436.1
        13.8        127680       13018.6
        14.1        133563       13616.3
        14.4        140008       14276.5
        14.7        147062         15002
          15        154026       15714.4
        15.3        161553       16476.6
        15.6        170175       17358.6
        15.9        178979       18262.1
        16.2        187754       19161.6
        16.5        196361         20034
        16.8        205500       20962.7
        17.1        215764       22022.6
        17.4        225720       23034.3
        17.7        235467       24035.7
          18        245572       25065.9
        18.3        254951       26025.9
        18.6        263558       26893.8
        18.9        271968         27753
        19.2        280011       28567.8
        19.5        287756       29347.9
        19.8        295024       30091.4
        20.1        300555         30658
        20.4        304967       31103.4
        20.7        309413       31544.6
          21        312690       31862.8
        21.3        314528       32046.7
        21.6        315989       32188.3
        21.9        316638       32248.9
        22.2        316749       32261.2
        22.5        315796       32156.1
        22.8        314744         32042
        23.1        313370       31889.5
        23.4        311125       31654.6
        23.7        308852       31419.2
          24        306459       31170.6
        24.3        303417       30862.6
        24.6        300626         30570
        24.9        297498       30250.8
        25.2        293642       29855.3
        25.5        289957       29478.8
        25.8        286144       29085.5
        26.1        282003       28661.3
        26.4        277600       28217.4
        26.7        273407       27794.1
          27        268896         27331
        27.3        263574       26791.7
        27.6        258179         26242
        27.9        252938       25705.5
        28.2        247152       25115.7
        28.5        240808       24472.6
        28.8        234121         23793
        29.1        227685       23135.4
        29.4        221505       22508.6
        29.7        214880       21835.3
          30        208034       21140.6
&
@type xydy
           0         76032       10898.9
         0.3       78006.7       8034.25
         0.6       76090.8       5127.36
         0.9       71230.8       4992.83
         1.2       70542.3       5026.77
         1.5       70582.1       4982.49
         1.8       71680.3       5066.43
         2.1       72856.1       5126.59
         2.4       72218.1       5103.23
         2.7       73847.3       5271.96
           3       75814.1       5437.41
         3.3       75133.2       5413.88
         3.6       75352.8       5402.08
         3.9       76517.5       5485.92
         4.2       76722.4       5575.15
         4.5       77081.8       5633.45
         4.8       77327.4       5667.54
         5.1       76970.1       5609.92
         5.4       77491.4       5570.45
         5.7       78393.3       5604.31
           6       79420.7       5730.54
         6.3       80534.4       5836.53
         6.6       81173.3       5858.95
         6.9       82203.6       5901.94
         7.2       84047.8       6037.31
         7.5       85636.6       6186.88
         7.8         87427        6302.7
         8.1       89356.4       6400.89
         8.4       91202.8       6525.56
         8.7       93190.7       6663.59
           9       95499.3       6827.22
         9.3         98163       7076.18
         9.6        100835       7304.96
         9.9        103443       7468.98
        10.2        106787       7686.77
        10.5        110720        7948.3
        10.8        115141       8282.27
        11.1        119537        8616.5
        11.4        124507       8959.88
        11.7        130287       9371.56
          12        135860       9786.46
        12.3        140905       10159.9
        12.6        146922       10588.3
        12.9        154311       11118.8
        13.2        161764         11688
        13.5        169426       12259.2
        13.8        178540       12915.2
        14.1        188263       13614.6
        14.4        198451       14344.2
        14.7        209605         15100
          15        221393       15885.4
        15.3        233838       16839.6
        15.6        247397       17905.1
        15.9        260883       18868.6
        16.2        274532       19782.2
        16.5        289827       20812.7
        16.8        306259       21984.9
        17.1        322398       23200.3
        17.4        338121       24483.2
        17.7        354175       25723.5
          18        370379       26849.9
        18.3        386061       27900.1
        18.6        400312         28876
        18.9        413886       29789.4
        19.2        426897       30720.6
        19.5        438170       31611.4
        19.8        447683         32375
        20.1        455559         32924
        20.4        461349       33306.5
        20.7        465578       33622.2
          21        469461       33910.1
        21.3        472663       34171.7
        21.6        473354       34199.1
        21.9        472227       34068.6
        22.2        470098         33958
        22.5        467447         33781
        22.8        464749       33560.6
        23.1        461448       33267.1
        23.4        456538       32855.1
        23.7        450719       32463.1
          24        445273       32118.8
        24.3        440331       31771.3
        24.6        435312         31403
        24.9        430043       31041.1
        25.2        425047       30704.4
        25.5        420587       30337.2
        25.8        415425       29946.6
        26.1        409454       29529.9
        26.4        402906       29067.2
        26.7        395255       28486.6
          27        387467       27908.3
        27.3        380204       27405.7
        27.6        372804       26942.1
        27.9        364800       26397.1
        28.2        356076       25731.7
        28.5        346064       24995.1
        28.8        335834       24217.6
        29.1        325670       23473.9
        29.4        314973         22706
        29.7        304143         21909
          30        293329       21145.3
&
