#
# This scattering intensity file was created by WAXSiS
#
# q[A-1]        I(q)              sigma(q)
           0   2.15923e+07       242407
        0.01   2.12052e+07       236937
        0.02   2.00874e+07       221779
        0.03   1.83593e+07       200139
        0.04   1.61983e+07       175918
        0.05   1.38088e+07       152477
        0.06   1.13905e+07       131834
        0.07   9.11175e+06       113452
        0.08   7.09177e+06        98246
        0.09   5.39482e+06      85622.1
         0.1   4.03478e+06      74984.1
        0.11   2.98735e+06      65602.3
        0.12   2.20541e+06      57240.9
        0.13   1.63362e+06      49429.5
        0.14   1.21946e+06      41974.1
        0.15        919462      34960.8
        0.16        701139      28838.6
        0.17        541754      24082.6
        0.18        425740      20439.1
        0.19        342060      17549.1
         0.2        282305      14960.4
        0.21        239721      12716.8
        0.22        208932      11163.1
        0.23        185953        10218
        0.24        168169       9704.8
        0.25        154136      9329.21
        0.26        143203      8898.49
        0.27        135089      8410.43
        0.28        129537      7941.36
        0.29        126124      7459.22
         0.3        124229       6905.9
        0.31        123121      6277.19
        0.32        122090      5596.42
        0.33        120580      4898.98
        0.34        118269      4229.22
        0.35        115107      3637.47
        0.36        111285       3174.6
        0.37        107176      2879.79
        0.38        103236      2753.53
        0.39         99900      2734.45
         0.4       97491.4      2733.63
        0.41       96161.5      2695.88
        0.42       95875.2      2615.33
        0.43       96440.6      2513.66
        0.44       97570.9      2416.09
        0.45       98955.7      2338.54
        0.46        100324      2283.67
        0.47        101484      2240.04
        0.48        102340      2186.29
        0.49        102896      2099.24
         0.5        103239      2027.65
        0.51        103438      1905.89
        0.52        104110      1824.38
        0.53        104801       1711.5
        0.54        106407      1627.39
        0.55        108092      1556.43
        0.56        110982      1532.13
        0.57        113696      1392.43
        0.58        116271      1460.51
        0.59        118806      1474.86
         0.6        120420      1470.81
        0.61        121005       1526.2
        0.62        120721      1530.73
        0.63        119069      1530.72
        0.64        116750       1559.9
        0.65        113661      1497.74
        0.66        110258      1424.59
        0.67        106874      1372.09
        0.68        103435      1388.55
        0.69       99878.6      1329.68
         0.7       96170.3      1291.24
        0.71       92388.4      1261.22
        0.72       88505.2      1195.01
        0.73       84239.5      1144.82
        0.74       79913.3      1133.31
        0.75       75665.1      1064.29
        0.76       71810.6      1019.48
        0.77       68147.7      990.337
        0.78       64911.1      948.106
        0.79         61987      908.151
         0.8       59505.5      843.707
        0.81       57220.8      837.083
        0.82       55098.9      825.826
        0.83       53251.6       814.35
        0.84       51822.8      787.351
        0.85       50645.5      748.633
        0.86       49879.8      733.222
        0.87       49329.5      707.469
        0.88       49106.4      675.714
        0.89       49130.4      697.352
         0.9       49239.5      726.833
        0.91       49379.1      712.563
        0.92       49384.5      720.688
        0.93       49193.5      710.871
        0.94       48792.8      718.075
        0.95         48161      724.374
        0.96       47228.6      690.283
        0.97       46327.4      675.757
        0.98       45483.9      662.091
        0.99       44576.1      644.343
           1       43896.4      633.152
